time [s];distance [km];distance2ess [km];baro alt;comment
0;0;69.9903203376801;260
66;0.00236306598084047;69.9879572716993;1671
67;0.0146517123150115;69.9756686253651;1670
68;0.0269403268966125;69.9633800107835;1669
69;0.039432949578244;69.9508873881019;1668
70;0.050378647781472;69.9399416898986;1668
71;0.0626670485097129;69.9276532891704;1667
72;0.0747517214032414;69.9155686162769;1666
73;0.085697424251819;69.9046229134283;1665
74;0.0979858197435678;69.8923345179365;1664
75;0.11027418145242;69.8800461562277;1663
76;0.122562509657495;69.8677578280226;1662
77;0.134850802704226;69.8554695349759;1662
78;0.147139058490575;69.8431812791895;1661
79;0.158084492640177;69.8322358450399;1661
80;0.170372671922058;69.8199476657581;1660
81;0.182660815165698;69.8076595225144;1659
82;0.19608873354501;69.7942316041351;1658
83;0.208376920555776;69.7819434171243;1658
84;0.220461873290042;69.7698584643901;1657
85;0.232750096482734;69.7575702411974;1656
86;0.244834885372547;69.7454854523076;1656
87;0.256919436975804;69.7334009007043;1656
88;0.26879932435957;69.7215210133205;1656
89;0.28088309224727;69.7094372454328;1655
90;0.29317167363214;69.697148664048;1654
91;0.305664743242611;69.6846555944375;1652
92;0.317953143481369;69.6723671941987;1651
93;0.330445400644094;69.659874937036;1651
94;0.34273361918157;69.6475867184985;1650
95;0.353679057490663;69.6366412801895;1651
96;0.36596719279766;69.6243531448824;1650
97;0.376912527691427;69.6134078099887;1649
98;0.389403437396817;69.6009169002833;1648
99;0.401691341721991;69.5886289959581;1646
100;0.413979206109841;69.5763411315703;1645
101;0.426064509976597;69.5642558277035;1644
102;0.438352408569932;69.5519679291102;1643
103;0.450437543497435;69.5398827941827;1642
104;0.462928090238755;69.5273922474414;1641
105;0.475215871913999;69.5151044657661;1639
106;0.487503612454369;69.5028167252257;1637
107;0.501134157310007;69.4891861803701;1636
108;0.513421826093981;69.4768985115861;1635
109;0.525709453996373;69.4646108836837;1634
110;0.536654171728442;69.4536661659517;1634
111;0.549143103392416;69.4411772342877;1633
112;0.560087561138906;69.4302327765412;1632
113;0.572374890208754;69.4179454474714;1630
114;0.586005121904323;69.4043152157758;1629
115;0.59829237662899;69.3920279610511;1628
116;0.610579590631256;69.3797407470489;1626
117;0.62286675817646;69.3674535795036;1625
118;0.635354027652735;69.3549663100274;1623
119;0.647640993726585;69.3426793439535;1622
120;0.660127385489701;69.3301929521904;1620
121;0.67241414228463;69.3179061953955;1619
122;0.683357777108438;69.3069625605717;1618
123;0.695843070898904;69.2944772667812;1618
124;0.708129561741312;69.2821907759388;1617
125;0.720416005473468;69.2699043322066;1614
126;0.732702402590978;69.2576179350891;1612
127;0.745186461798294;69.2451338758818;1610
128;0.759013016752127;69.231307320928;1607
129;0.77264227371056;69.2176780639695;1604
130;0.786468049104296;69.2038522885758;1601
131;0.801832090659082;69.188488247021;1597
132;0.816999436107071;69.173320901573;1594
133;0.830822760109877;69.1594975775702;1592
134;0.845988882739781;69.1443314549403;1591
135;0.859617380406169;69.1307029572739;1590
136;0.873245839898795;69.1170744977813;1589
137;0.887067585365876;69.1032527523142;1587
138;0.900888646620908;69.0894316910592;1585
139;0.914900797466689;69.0754195402134;1582
140;0.930063605923584;69.0602567317565;1579
141;0.944072330497904;69.0462480071822;1577
142;0.957889546296297;69.0324307913838;1575
143;0.971706057320029;69.0186142803601;1574
144;0.984177979020329;69.0061423586598;1573
145;0.997993024387906;68.9923273132922;1571
146;1.01180734847682;68.9785129892033;1569
147;1.02580733780643;68.9645129998737;1566
148;1.039805000215;68.9505153374651;1563
149;1.05380032679124;68.9365200108889;1561
150;1.06761001502699;68.9227103226531;1559
151;1.08141896034111;68.908901377339;1558
152;1.09522715558377;68.8950931820963;1556
153;1.10903459973243;68.8812857379477;1554
154;1.12418567801848;68.8661346596616;1552
155;1.13799164456334;68.8523286931168;1549
156;1.15314131839747;68.8371790192826;1547
157;1.16694579030642;68.8233745473737;1545
158;1.1822727433191;68.808047594361;1543
159;1.1960751100268;68.7942452276533;1541
160;1.21005373661265;68.7802666010675;1539
161;1.22420540389368;68.7661149337864;1538
162;1.23683313894864;68.7534871987315;1537
163;1.25062987619903;68.7396904614811;1535
164;1.26477074038758;68.7255495972925;1533
165;1.27873577100202;68.7115845666781;1530
166;1.29135309305749;68.6989672446226;1528
167;1.30548142731955;68.6848389103606;1527
168;1.31809229063253;68.6722280470476;1526
169;1.33204586555157;68.6582744721285;1525
170;1.34465134015658;68.6456689975235;1523
171;1.35859964809139;68.6317206895887;1520
172;1.37270771197355;68.6176126257066;1519
173;1.38664964458352;68.6036706930966;1518
174;1.40058892747916;68.589731410201;1516
175;1.41317964470077;68.5771406929793;1515
176;1.42711350292101;68.5632068347591;1514
177;1.4396986268481;68.550621710832;1513
178;1.45378206604374;68.5365382716364;1512
179;1.46770657967804;68.5226137580021;1511
180;1.48178062629074;68.5085397113894;1509
181;1.49569847898147;68.4946218586986;1507
182;1.51080999996029;68.4795103377198;1506
183;1.52472350716042;68.4655968305197;1505
184;1.53863420777932;68.4516861299008;1506
185;1.55119545645184;68.4391248812283;1506
186;1.56389899696685;68.4264213407133;1505
187;1.57645307313516;68.413867264545;1503
188;1.59035099809145;68.3999693395887;1502
189;1.6028991074542;68.3874212302259;1501
190;1.61544417260731;68.3748761650728;1503
191;1.62663911885783;68.3636812188223;1504
192;1.63769292642805;68.3526274112521;1507
193;1.64753552277939;68.3427848149007;1508
194;1.65737474848413;68.332945589196;1508
195;1.66855790594379;68.3217624317363;1506
196;1.67973780185291;68.3105825358272;1504
197;1.69091442420316;68.2994059134769;1503
198;1.70208775221587;68.2882325854642;1503
199;1.71191019378391;68.2784101438962;1503
200;1.72307683198871;68.2672435056914;1503
201;1.73424013590784;68.2560802017723;1503
202;1.74540009283877;68.2449202448413;1501
203;1.75643238417545;68.2338879535047;1500
204;1.76881124864089;68.2215090890392;1499
205;1.7811888962657;68.2091314414144;1499
206;1.7922173978019;68.1981029398782;1499
207;1.80336574209204;68.1869545955881;1499
208;1.8143908256096;68.1759295120705;1499
209;1.82676266154442;68.1635576761357;1498
210;1.8390144819048;68.1513058557753;1497
211;1.84991802725416;68.140402310426;1496
212;1.86216946667022;68.1281508710099;1496
213;1.87430232289758;68.1160180147825;1496
214;1.88520557641296;68.1051147612671;1496
215;1.89733841695817;68.0929819207219;1495
216;1.90812305673334;68.0821972809468;1495
217;1.92025565469314;68.070064682987;1494
218;1.93238812197432;68.0579322157058;1493
219;1.94317242990626;68.0471479077738;1492
220;1.95542405697198;68.0348962807081;1491
221;1.96780367881757;68.0225166588625;1490
222;1.98017517060817;68.0101451670719;1489
223;1.99254538522131;67.9977749524588;1486
224;2.00503036315623;67.9852899745239;1484
225;2.01739718019481;67.9729231574853;1484
226;2.02841418749263;67.9619061501875;1483
227;2.0392022154991;67.951118122181;1482
228;2.0513386507356;67.9389816869445;1481
229;2.06077803140153;67.9295423062786;1480
230;2.07156581794942;67.9187545197307;1478
231;2.08100506482717;67.9093152728529;1478
232;2.09179270112485;67.8985276365553;1476
233;2.10258025546953;67.8877400822106;1473
234;2.1133677300134;67.8769526076667;1470
235;2.12538738598645;67.8649329516937;1467
236;2.13617448438503;67.8541458532951;1465
237;2.14549606756592;67.8448242701142;1464
238;2.15640006453381;67.8339202731463;1464
239;2.16595547089065;67.8243648667895;1462
240;2.176859024758;67.8134613129221;1460
241;2.18899450652135;67.8013258311587;1457
242;2.19978150731148;67.7905388303686;1454
243;2.21191678270514;67.778403554975;1453
244;2.22135525122398;67.7689650864561;1452
245;2.2322590767792;67.7580612609009;1451
246;2.24304593610871;67.7472744015714;1449
247;2.25371521521085;67.7366051224693;1447
248;2.26438345385213;67.725936883828;1444
249;2.27639888607053;67.7139214516096;1439
250;2.28976138945216;67.700558948228;1434
251;2.30581898619545;67.6845013514847;1429
252;2.32052707407427;67.6697932636058;1426
253;2.33388576999193;67.6564345676882;1425
254;2.34601832499031;67.6443020126898;1426
255;2.35815075260776;67.6321695850723;1426
256;2.37028305313873;67.6200372845414;1425
257;2.38388658940088;67.6064337482792;1422
258;2.39748997102273;67.5928303666574;1419
259;2.41097039370866;67.5793499439715;1417
260;2.42445066024875;67.5658696774314;1415
261;2.43805412399153;67.5522662136886;1414
262;2.44883831729353;67.5414820203866;1414
263;2.45974565892981;67.5305746787503;1415
264;2.46918185003387;67.5211384876462;1417
265;2.47726994698092;67.5130503906992;1418
266;2.48510986042471;67.5052104772554;1419
267;2.49147273431282;67.4988476033673;1419
268;2.49782965236627;67.4924906853138;1420
269;2.5041805825663;67.4861397551138;1421
270;2.50930959476609;67.481010742914;1421
271;2.51416948496335;67.4761508527168;1422
272;2.51767200083504;67.4726483368451;1422
273;2.51967880458075;67.4706415330994;1422
274;2.52167081487573;67.4686495228044;1423
275;2.52379249440372;67.4665278432764;1425
276;2.52590455700469;67.4644157806754;1427
277;2.52935356624005;67.4609667714401;1428
278;2.53413906194143;67.4561812757387;1428
279;2.5404140714361;67.449906266244;1427
280;2.54683764790032;67.4434826897798;1429
281;2.5547599192124;67.4355604184677;1429
282;2.5613349650421;67.428985372638;1430
283;2.56941167873322;67.4209086589469;1429
284;2.57748829704287;67.4128320406372;1426
285;2.58975962100003;67.4005607166801;1422
286;2.60187448522371;67.3884458524564;1417
287;2.61517792085857;67.3751424168215;1414
288;2.62713380296979;67.3631865347103;1414
289;2.63892851920459;67.3513918184755;1414
290;2.64969529147848;67.3406250462016;1416
291;2.66164677232798;67.3286735653521;1416
292;2.67359674341505;67.3167235942651;1415
293;2.68807301589556;67.3022473217845;1412
294;2.70270991221965;67.2876104254605;1409
295;2.71583347279842;67.2744868648817;1408
296;2.72777505107864;67.2625452866015;1412
297;2.73719237916263;67.2531279585175;1416
298;2.74644138156404;67.2438789561161;1419
299;2.75568905984634;67.2346312778338;1420
300;2.76762565628036;67.2226946813997;1417
301;2.78207905506295;67.2082412826172;1413
302;2.7953562119921;67.194964125688;1412
303;2.8088052945637;67.1815150431164;1413
304;2.81956431312431;67.1707560245558;1415
305;2.83032310166241;67.1599972360177;1417
306;2.83973685934147;67.1505834783386;1416
307;2.85049522545976;67.1398251122204;1413
308;2.86259810998374;67.1277222276964;1410
309;2.87335598426561;67.1169643534145;1407
310;2.88411362335098;67.1062067143291;1406
311;2.89370222851032;67.0966181091698;1406
312;2.90194593216534;67.0883744055148;1407
313;2.90919308194407;67.081127255736;1406
314;2.91795260756275;67.0723677301174;1403
315;2.92821835937924;67.0621019783009;1398
316;2.93830541021613;67.052014927464;1395
317;2.94720330532134;67.0431170323588;1393
318;2.95592706060031;67.0343932770798;1391
319;2.96480172933753;67.0255186083426;1390
320;2.97381875647741;67.0165015812027;1389
321;2.98131809081853;67.0090022468616;1389
322;2.98895293201228;67.0013674056678;1389
323;2.99776887081822;66.9925514668619;1390
324;3.00536738954728;66.9849529481328;1390
325;3.01173725282375;66.9785830848564;1390
326;3.01807881547385;66.9722415222063;1390
327;3.02169692984127;66.9686234078388;1391
328;3.02528575862046;66.9650345790596;1393
329;3.03019328939493;66.9601270482852;1395
330;3.03642014068493;66.9539001969952;1398
331;3.04127009041843;66.9490502472617;1399
332;3.04878828461644;66.9415320530637;1399
333;3.05627825344684;66.9340420842333;1399
334;3.06633706882389;66.9239832688562;1400
335;3.07502678279069;66.9152935548894;1404
336;3.08215775378876;66.9081625838913;1409
337;3.08802308634648;66.9022972513336;1414
338;3.09513379020113;66.895186547479;1417
339;3.10223553401175;66.8880848036684;1419
340;3.11211224196892;66.8782080957112;1419
341;3.12197501178003;66.8683453259001;1420
342;3.13309448641475;66.8572258512654;1422
343;3.14412798582966;66.8461923518504;1424
344;3.1538069964975;66.8365133411826;1429
345;3.16340668914604;66.8269136485341;1433
346;3.17158048389478;66.8187398537853;1438
347;3.17817972286609;66.812140614814;1440
348;3.18192126240818;66.8083990752719;1440
369;3.18659144301307;66.803728894667;1469
370;3.19735123684868;66.7929691008314;1470
371;3.2095520134539;66.7807683242262;1471
372;3.22179653008113;66.768523807599;1472
373;3.23403895003357;66.7562813876465;1475
374;3.24492858918577;66.7453917484943;1478
375;3.25577533050343;66.7345450071767;1480
376;3.26801250479385;66.7223078328863;1481
377;3.28024753935784;66.7100727983223;1482
378;3.2924804228003;66.6978399148798;1483
379;3.30474727040372;66.6855730672764;1484
380;3.31700898077167;66.6733113569084;1485
381;3.32791471621109;66.662405621469;1487
382;3.33887474483936;66.6514455928408;1488
383;3.34979331555862;66.6405270221215;1488
384;3.36072618907476;66.6295941486053;1490
385;3.37029290366874;66.6200274340114;1493
386;3.3798442667706;66.6104760709095;1497
387;3.38801465839145;66.6023056792887;1500
388;3.39887718259764;66.5914431550825;1502
389;3.41241081463199;66.5779095230481;1502
390;3.42458077477546;66.5657395629047;1503
391;3.43537792698195;66.5549424106982;1505
392;3.44479828171684;66.5455220559633;1507
393;3.45151073048379;66.5388096071963;1510
394;3.45688304669305;66.5334372909871;1512
395;3.46358560366987;66.5267347340102;1514
396;3.46755970870054;66.5227606289796;1517
397;3.47289748741321;66.5174228502669;1518
398;3.47682737516583;66.5134929625143;1519
399;3.48212079357539;66.5081995441047;1519
400;3.48740356224877;66.5029167754313;1521
401;3.49676159388151;66.4935587437986;1522
402;3.50607753476078;66.4842428029193;1525
403;3.51407021781159;66.4762501198685;1527
404;3.52205658491458;66.4682637527655;1530
405;3.53003659443557;66.4602837432445;1532
406;3.53936074164539;66.4509595960347;1533
407;3.55002885385713;66.440291483823;1533
408;3.56064151301011;66.42967882467;1534
409;3.57129413957978;66.4190261981003;1534
410;3.58329030498804;66.4070300326921;1535
411;3.59263416680695;66.3976861708732;1538
412;3.60056802078016;66.3897523168999;1542
413;3.6043853903711;66.385934947309;1546
429;3.60865297471407;66.381667362966;1559
430;3.61933971596354;66.3709806217166;1558
431;3.62727593424468;66.3630444034354;1558
432;3.63520075924708;66.355119578433;1558
433;3.64446451863259;66.3458558190475;1558
434;3.6537166124483;66.3366037252318;1557
435;3.66436121943762;66.3259591182425;1557
436;3.67505436399554;66.3152659736846;1556
437;3.68574417375939;66.3045761639207;1556
438;3.69643062563319;66.2938897120469;1555
439;3.70846378544788;66.2818565522322;1554
440;3.72049343414707;66.269826903533;1552
441;3.73521952319608;66.255100814484;1549
442;3.74852713016323;66.2417932075169;1545
443;3.76324405132979;66.2270762863503;1544
444;3.77667527305784;66.2136450646223;1544
445;3.78996672717112;66.200353610509;1544
446;3.80197263279639;66.1883477048837;1543
447;3.81390125514075;66.1764190825394;1541
448;3.82724751550076;66.1630728221794;1539
449;3.84201612787179;66.1483042098083;1536
450;3.85813271807788;66.1321876196022;1534
451;3.87432589778661;66.1159944398935;1531
452;3.88916939795329;66.1011509397268;1531
453;3.90266328579653;66.0876570518836;1533
454;3.91480761342213;66.075512724258;1536
455;3.92560243002704;66.0647179076531;1537
456;3.93909577019866;66.0512245674814;1535
457;3.95289026561941;66.0374300720607;1531
458;3.96908764932949;66.0212326883506;1525
459;3.98536305665415;66.004957281026;1521
460;4.00028833640096;65.9900320012791;1519
461;4.01259012690393;65.9777302107762;1519
462;4.02481451128467;65.9655058263954;1520
463;4.03703848715083;65.9532818505293;1520
464;4.05046130115981;65.9398590365203;1519
465;4.06395942722746;65.9263609104527;1516
466;4.07880721178936;65.9115131258908;1513
467;4.09238148319873;65.8979388544814;1511
468;4.10603053496769;65.8842898027124;1511
469;4.11960350416416;65.870716833516;1513
470;4.13047634843507;65.859843989245;1514
471;4.14269861075179;65.8476217269283;1514
472;4.15357055757611;65.836749780104;1513
473;4.16714183019259;65.8231785074875;1509
474;4.18206259167723;65.8082577460029;1505
475;4.19698294632803;65.7933373913521;1501
476;4.21190289427534;65.7784174434048;1498
477;4.22554217688809;65.764778160792;1499
478;4.23782919593298;65.7524911417471;1499
479;4.24876383009662;65.7415565075835;1500
480;4.2609804162303;65.7293399214498;1500
481;4.27184647879304;65.7184738588871;1500
482;4.28406209811219;65.7062582395679;1498
483;4.29756258582081;65.6927577518593;1495
484;4.31112786572397;65.6791924719561;1492
485;4.32469267801262;65.6656276596675;1490
486;4.33825701163754;65.6520633260426;1489
487;4.35182086179445;65.6384994758857;1489
488;4.36397147989539;65.6263488577847;1489
489;4.37753491891417;65.6127854187659;1488
490;4.38968549093406;65.600634846746;1486
491;4.40331021447896;65.5870101232012;1484
492;4.41687214899994;65.5734481886802;1483
493;4.43049332732783;65.5598270103523;1481
494;4.4440536502858;65.5462666873943;1480
495;4.45620475656388;65.5341155811162;1478
496;4.46976462061229;65.5205557170678;1477
497;4.48332395118882;65.5069963864913;1475
498;4.49682516088641;65.4934951767937;1474
499;4.5103840187324;65.4799363189477;1473
500;4.52399871625858;65.4663216214215;1471
501;4.53750009724324;65.4528202404369;1470
502;4.54965120412518;65.4406691335549;1469
503;4.56180216740927;65.4285181702708;1468
504;4.57530308093115;65.415017256749;1466
505;4.58745375636825;65.4028665813119;1465
506;4.60095433674597;65.3893660009341;1463
507;4.61316171780418;65.3771586198759;1462
508;4.62666217412357;65.3636581635565;1461
509;4.63881241888841;65.3515079187917;1459
510;4.6509048568088;65.3394154808713;1457
511;4.66440453630201;65.3259158013781;1456
512;4.67790401515598;65.3124163225241;1454
513;4.69146165682076;65.2988586808594;1452
514;4.70355243805271;65.2867678996274;1451
515;4.71570142013436;65.2746189175458;1449
516;4.7290793442451;65.261240993435;1448
517;4.74116557065508;65.249154767025;1446
518;4.75325025365067;65.2370700840294;1445
519;4.76674718743845;65.2235731502417;1443
520;4.7801794148629;65.2101409228172;1440
521;4.7948929856735;65.1954273520066;1437
522;4.80966999738521;65.1806503402949;1435
523;4.82295515901463;65.1673651786655;1436
524;4.83360525633753;65.1567150813426;1439
525;4.84290133045056;65.1474190072295;1442
526;4.85084360561899;65.1394767320611;1444
527;4.8615581757244;65.1287621619557;1443
528;4.87227103994072;65.1180492977394;1440
529;4.8855985461383;65.1047217915418;1436
530;4.89892048000384;65.0913998576763;1433
531;4.9122367537122;65.0780835839679;1430
532;4.92599096580512;65.064329371875;1429
533;4.93804855480822;65.0522717828719;1430
534;4.95010435401319;65.0402159836669;1430
535;4.96350746942397;65.0268128682561;1429
536;4.97555954975476;65.0147607879254;1427
537;4.98895876787559;65.0013615698045;1424
538;5.00370487584213;64.986615461838;1421
539;5.01719396788603;64.9731263697941;1419
540;5.02914407020167;64.9611762674784;1418
541;5.04253493400628;64.9477854036738;1417
542;5.0544759326835;64.9358444049966;1416
543;5.06641116945859;64.9239091682215;1414
544;5.07968888006141;64.9106314576187;1412
545;5.09306662745256;64.8972537102275;1409
546;5.10633427474;64.8839860629401;1406
547;5.12105370296857;64.8692666347116;1404
548;5.13442254464541;64.8558977930347;1402
549;5.14790111507569;64.8424192226044;1400
550;5.16126634668543;64.8290539909947;1399
551;5.17474330459468;64.8155770330854;1398
552;5.18810478298138;64.8022155546987;1397
553;5.20146353215163;64.7888568055285;1395
