time [s];distance [km];distance2ess [km];baro alt;comment
0;0;69.9903203376801;260
60;0.0108515686994069;69.9794687689807;1664
61;0.0233658178385667;69.9669545198416;1663
62;0.0369995018568879;69.9533208358232;1661
63;0.05219562863186;69.9381247090483;1660
64;0.065829242395208;69.9244910952849;1659
65;0.0783422823642468;69.9119780553159;1658
66;0.0919758221538796;69.8983445155262;1658
67;0.105388732223524;69.8849316054566;1658
68;0.119022287752072;69.871298049928;1657
69;0.131314547526083;69.859005790154;1656
70;0.145168516926089;69.845151820754;1655
71;0.160143305347534;69.8301770323326;1654
72;0.173776757195446;69.8165435804847;1653
73;0.187410194139593;69.8029101435405;1652
74;0.199702281247824;69.7906180564323;1652
75;0.213115465537296;69.7772048721428;1652
76;0.225187039576631;69.7651332981035;1652
77;0.238599577595422;69.7517207600847;1653
78;0.250670566478802;69.7396497712013;1652
79;0.262519265134921;69.7278010725452;1652
80;0.274589354471056;69.7157309832091;1652
81;0.286436055308208;69.7038842823719;1652
82;0.29716423234278;69.6931561053373;1652
83;0.309233156853079;69.681087180827;1651
84;0.321525887444659;69.6687944502355;1650
85;0.333594577363066;69.656725760317;1648
86;0.347228289369232;69.6430920483109;1647
87;0.360861985207128;69.629458352473;1647
88;0.372930426759514;69.6173899109206;1646
89;0.386339461846364;69.6039808758337;1645
90;0.397291401993949;69.5930289356862;1645
91;0.409359306161568;69.5809610315185;1644
92;0.421426910527618;69.5688934271525;1643
93;0.43506065101194;69.5552596866682;1642
94;0.447353538109994;69.5429667995701;1641
95;0.459420916649906;69.5308994210302;1640
96;0.471713830312874;69.5186065073672;1639
97;0.484006719619021;69.5063136180611;1638
98;0.496299580567851;69.4940207571123;1637
99;0.508366809954401;69.4819535277257;1636
100;0.522000488640508;69.4683198490396;1635
101;0.535408181333041;69.4549121563471;1634
102;0.54770110469863;69.4426192329815;1633
103;0.561334761087172;69.4289855765929;1632
104;0.573401428560814;69.4169189091193;1631
105;0.585694356221225;69.4046259814589;1630
106;0.597760762568258;69.3925595751118;1629
107;0.610053712227644;69.3802666254525;1628
108;0.62234663618647;69.3679737014936;1626
109;0.634639528969346;69.3556808087108;1624
110;0.647158587085723;69.3431617505944;1623
111;0.659677021658921;69.3306433160212;1621
112;0.672194832060544;69.3181255056196;1620
113;0.684487384794862;69.3058329528853;1619
114;0.697004461923512;69.2933158757566;1618
115;0.710637779607525;69.2796825580726;1617
116;0.722930172120541;69.2673901655596;1615
117;0.73544644415949;69.2548738935206;1614
118;0.747738692732906;69.2425816449472;1613
119;0.760030913472525;69.2302894242076;1611
120;0.773664072671643;69.2166562650085;1610
121;0.785956235797974;69.2043641018821;1608
122;0.798248371175781;69.1920719665043;1607
123;0.810540472108245;69.1797798655719;1606
124;0.822832544171746;69.1674877935084;1605
125;0.835124582399148;69.155195755281;1604
126;0.847416589802699;69.1429037478774;1602
127;0.859708564019733;69.1306117736604;1601
128;0.872000505382108;69.118319832298;1600
129;0.885633430941118;69.104686906739;1599
130;0.897925313824177;69.0923950238559;1598
131;0.910217161710127;69.08010317597;1597
132;0.921167946081143;69.069152391599;1596
133;0.933459720033366;69.0568606176467;1595
134;0.945751459746942;69.0445688779332;1594
135;0.958043169278928;69.0322771684012;1592
136;0.970334839812625;69.0199854978675;1591
137;0.982626477745376;69.0076938599347;1590
138;0.995139818746989;68.9951805189331;1589
139;1.00743129681097;68.9828890408691;1588
140;1.01972274227004;68.9705975954101;1587
141;1.0306730174843;68.9596473201958;1586
142;1.04296438362791;68.9473559540522;1585
143;1.0554765095191;68.934843828161;1583
144;1.06664671941996;68.9236736182601;1582
145;1.07915743736121;68.9111629003189;1581
146;1.09032613474445;68.8999942029357;1579
147;1.10283542779915;68.887484909881;1578
148;1.11422002651927;68.8761003111608;1576
149;1.12672732069447;68.8635930169856;1575
150;1.14057547946625;68.8497448582139;1572
151;1.15442302381335;68.8358973138668;1570
152;1.16692829830594;68.8233920393742;1569
153;1.18055984137196;68.8097604963082;1568
154;1.19172260115144;68.7985977365287;1567
155;1.20401229377187;68.7863080439082;1566
156;1.21630194831447;68.7740183893656;1565
157;1.23014712037372;68.7601732173064;1563
158;1.24377835487598;68.7465419828041;1561
159;1.25762279297052;68.7326975447096;1560
160;1.27146659431873;68.7188537433614;1559
161;1.28396785214559;68.7063524855345;1558
162;1.29533743581013;68.69498290187;1557
163;1.30649453423262;68.6838258034475;1555
164;1.31920220627628;68.6711181314038;1553
165;1.3319074617758;68.6584128759043;1551
166;1.34461028966552;68.6457100480146;1549
167;1.35890842522158;68.6314119124585;1548
168;1.37294990929171;68.6173704283884;1547
169;1.38544284762148;68.6048774900586;1546
170;1.39793501319467;68.5923853244854;1546
171;1.40908349329897;68.5812368443811;1545
172;1.4217755877523;68.5685447499278;1544
173;1.43446517854063;68.5558551591395;1543
174;1.44715225140614;68.543168086274;1542
175;1.46118005495952;68.5291402827206;1541
176;1.47386214491719;68.5164581927629;1541
177;1.4865416797245;68.5037786579556;1541
178;1.49787512526762;68.4924452124125;1541
179;1.51054942207351;68.4797709156066;1540
180;1.5218774279614;68.4684429097187;1540
181;1.53320264547238;68.4571176922077;1539
182;1.54586894475255;68.4444513929276;1538
183;1.55853260916255;68.4317877285176;1538
184;1.57119362785529;68.4191267098248;1537
185;1.58500922252492;68.4053111151552;1537
186;1.59766613279366;68.3926542048865;1536
187;1.61147950445049;68.3788408332296;1535
188;1.62413227484554;68.3661880628346;1535
189;1.63678233606135;68.3535380016188;1534
190;1.65059197777128;68.3397283599088;1534
191;1.66305632678156;68.3272640108985;1533
192;1.67704517089609;68.313275166784;1533
193;1.69085169684161;68.2994686408385;1532
194;1.70349178672623;68.2868285509539;1531
195;1.71747387287414;68.272846464806;1531
196;1.73127657009031;68.2590437675898;1530
197;1.74507842484808;68.245241912832;1530
198;1.75770992678491;68.2326104108952;1529
199;1.77150937819187;68.2188109594882;1528
200;1.78548156006768;68.2048387776124;1528
201;1.79793348901707;68.192386848663;1527
202;1.81038445321951;68.1799358844606;1527
203;1.82417966838399;68.1661406692961;1526
204;1.83797399472178;68.1523463429583;1525
205;1.85193711140218;68.1383832262779;1524
206;1.86572897543038;68.1245913622497;1524
207;1.87951993610014;68.11080040158;1523
208;1.89179689037148;68.0985234473086;1523
209;1.90525125286863;68.0850690848115;1522
210;1.91887367809958;68.0714466595805;1522
211;1.93232789095875;68.0579924467214;1521
212;1.9459503484568;68.0443699892233;1520
213;1.95974055530179;68.0305797823783;1519
214;1.97336271263016;68.01695762505;1518
215;1.98580623502107;68.004514102659;1518
216;1.99808253942119;67.9922377982589;1517
217;2.01035875397484;67.9799615837053;1516
218;2.02263487204968;67.9676854656304;1515
219;2.03507646566263;67.9552438720175;1514
220;2.04735218419001;67.9429681534901;1512
221;2.05844675761738;67.9318735800627;1511
222;2.07088590444197;67.9194344332381;1509
223;2.08316089330814;67.907159444372;1508
224;2.09409004064844;67.8962302970317;1506
225;2.10636481577663;67.8839555219035;1504
226;2.11863949121577;67.8716808464643;1501
227;2.12956828297427;67.8607520547058;1499
228;2.14049693867036;67.8498233990098;1497
229;2.15293297391907;67.837387363761;1494
230;2.16418238337897;67.8261379543011;1492
231;2.17796142015774;67.8123589175224;1489
232;2.19023455862253;67.8000857790576;1487
233;2.2025075833748;67.7878127543053;1486
234;2.21462154461538;67.7756987930647;1485
235;2.2267353069703;67.7635850307098;1484
236;2.23884887126402;67.7514714664161;1482
237;2.25230814597422;67.7380121917059;1480
238;2.264581545604;67.7257387920761;1478
239;2.27669479493245;67.7136255427477;1477
240;2.28880784556911;67.701512492111;1475
241;2.30092068766014;67.68939965002;1474
242;2.31168748500056;67.6786328526796;1473
243;2.32245411834193;67.6678662193382;1471
244;2.33338212667845;67.6569382110017;1468
245;2.34549452770859;67.6448258099715;1466
246;2.35776835905194;67.6325519786282;1464
247;2.37138791464956;67.6189324230305;1462
248;2.38500738159599;67.6053129560841;1460
249;2.39728090669723;67.5930394309829;1459
250;2.40955431289614;67.580766024784;1457
251;2.42182760692423;67.5684927307559;1456
252;2.43544668127171;67.5548736564084;1454
253;2.44755960933503;67.5427607283451;1453
254;2.45983280168963;67.5304875359905;1452
255;2.47091962478035;67.5194007128998;1452
256;2.4820051932144;67.5083151444657;1452
257;2.49174345914072;67.4985768785394;1453
258;2.50148035637494;67.4888399813052;1454
259;2.50986971689973;67.4804506207804;1455
260;2.51841223061722;67.4719081070629;1456
261;2.52560448971167;67.4647158479684;1457
262;2.53398743836788;67.4563328993122;1458
263;2.54221760119664;67.4481027364835;1459
264;2.55014400172238;67.4401763359577;1459
265;2.55656963307757;67.4337507046025;1459
266;2.55998883742213;67.430331500258;1459
267;2.56070602687387;67.4296143108062;1458
300;2.56085597351467;67.4294643641654;1454
301;2.57309059798102;67.4172297396991;1456
302;2.58532495241697;67.4049953852631;1457
303;2.59747044370094;67.3928498939792;1459
304;2.61096534442384;67.3793549932563;1461
305;2.62311067126175;67.3672096664184;1464
306;2.63399560692746;67.3563247307526;1467
307;2.6435307471539;67.3467895905262;1469
308;2.65297725077072;67.3373430869094;1471
309;2.66377319377729;67.3265471439028;1472
310;2.67321959199486;67.3171007456853;1473
311;2.68392605268731;67.3063942849928;1474
312;2.69346171315142;67.2968586245287;1475
313;2.7030855616482;67.2872347760319;1476
314;2.71405718562988;67.2762631520502;1476
315;2.72637668324821;67.2639436544319;1476
316;2.7386089393088;67.2517113983713;1476
317;2.75092611735292;67.2393942203272;1476
318;2.76315740864439;67.2271629290357;1475
319;2.77538840820256;67.2149319294775;1475
320;2.7877025480616;67.2026177896185;1475
321;2.79993256011554;67.1903877775646;1474
322;2.81351196761035;67.1768083700698;1474
323;2.82582305420874;67.1644972834714;1475
324;2.83678268439436;67.1535376532858;1476
325;2.84646977938655;67.1438505582936;1477
326;2.85615235648886;67.1341679811913;1477
327;2.86853021572878;67.1217901219513;1477
328;2.88075472206286;67.1095656156172;1473
329;2.8956787594014;67.0946415782787;1471
330;2.90925257529729;67.0810677623828;1469
331;2.92147613672505;67.0688442009551;1468
332;2.93377250456988;67.0565478331102;1467
333;2.94478857402425;67.0455317636559;1466
334;2.95573023764556;67.0345901000345;1463
335;2.96673882429853;67.0235815133816;1461
336;2.98037592758751;67.0099444100926;1458
337;2.99259435990491;66.9977259777752;1454
338;3.00487872002815;66.985441617652;1452
339;3.01851140543021;66.9718089322499;1450
340;3.03214227571215;66.958178061968;1448
341;3.04577131108631;66.9445490265938;1447
342;3.05933638994055;66.9309839477396;1445
343;3.07155085261649;66.9187694850636;1446
344;3.08241467297125;66.9079056647089;1447
345;3.09198848555068;66.8983318521294;1449
346;3.10296955811096;66.8873507795692;1450
347;3.11523893146326;66.8750814062169;1451
348;3.12885673245325;66.8614636052269;1451
349;3.14241687844325;66.8479034592369;1452
350;3.15462623776868;66.8356940999114;1454
351;3.16553954111962;66.8247807965605;1455
352;3.17504672492573;66.8152736127544;1457
353;3.18325611433652;66.8070642233436;1458
354;3.19011286748527;66.8002074701948;1459
355;3.19826713661797;66.7920532010621;1458
356;3.20917220388747;66.7811481337926;1457
357;3.22142571540469;66.7688946222754;1456
358;3.23367716782272;66.7566431698574;1455
359;3.24862770555032;66.7416926321298;1455
360;3.26222563900464;66.7280946986755;1456
361;3.27586556271015;66.71445477497;1457
362;3.28810758835785;66.7022127493223;1458
363;3.30030573592419;66.6900146017559;1460
364;3.31115276734179;66.6791675703383;1462
365;3.32199931279539;66.6683210248847;1464
366;3.33284538055195;66.6574749571282;1466
367;3.34237986376778;66.6479404739123;1468
368;3.35194986533294;66.6383704723472;1470
369;3.36151459113989;66.6288057465402;1472
370;3.37245826661495;66.6178620710652;1474
371;3.38332971345731;66.6069906242228;1475
372;3.3941677936998;66.5961525439803;1477
373;3.40635615943844;66.5839641782417;1479
374;3.41574868086676;66.5745716568133;1482
375;3.42375373256442;66.5665666051157;1485
376;3.42905119701089;66.5612691406692;1488
377;3.43025216437365;66.5600681733065;1490
393;3.4327241112045;66.5575962264756;1521
394;3.44353228266414;66.546788055016;1523
395;3.45298941200317;66.5373309256769;1524
396;3.46379753616062;66.5265228015195;1527
397;3.47190361622866;66.5184167214514;1528
398;3.47999206572307;66.510328271957;1530
399;3.48672684839953;66.5035934892806;1531
400;3.49480995082729;66.4955103868528;1532
401;3.5028903544474;66.4874299832327;1533
402;3.51095301824402;66.4793673194361;1534
403;3.51902665370762;66.4712936839725;1535
404;3.52707920186178;66.4632411358183;1537
405;3.53514598635561;66.4551743513245;1538
406;3.54183743550464;66.4484829021755;1539
407;3.54984930979888;66.4404710278812;1540
408;3.55652648928162;66.4337938483985;1542
409;3.56316849653987;66.4271518411402;1544
410;3.56983127860186;66.4204890590783;1546
411;3.57787159625778;66.4124487414223;1547
412;3.58590900232614;66.404411335354;1549
413;3.59397865829898;66.3963416793811;1550
414;3.60336224150744;66.3869580961727;1551
415;3.61274281425605;66.3775775234241;1551
416;3.62208094492764;66.3682393927525;1550
417;3.63141250498605;66.3589078326941;1550
418;3.63938695265677;66.3509333850233;1549
419;3.64865889599585;66.3416614416843;1549
420;3.65661800975591;66.3337023279242;1549
421;3.66457046810361;66.3257498695765;1548
422;3.67116595401221;66.3191543836679;1548
423;3.67915990697798;66.3111604307021;1547
424;3.6884445353295;66.3018758023506;1545
425;3.69907235512478;66.2912479825553;1542
426;3.71104311657374;66.2792772211064;1540
427;3.72429283694434;66.2660275007358;1538
428;3.73624659821557;66.2540737394645;1537
429;3.74684309379169;66.2434772438884;1537
430;3.75615293543812;66.234167402242;1536
431;3.76560120743047;66.2247191302496;1533
432;3.77774887970346;66.2125714579767;1530
433;3.79124614158622;66.1990741960939;1527
434;3.80886295956916;66.1814573781109;1523
435;3.82640917884832;66.1639111588318;1520
436;3.84267591242981;66.1476444252503;1519
437;3.85624282403552;66.1340775136446;1520
438;3.86710988248777;66.1232104551923;1521
439;3.87932619940746;66.1109941382727;1521
440;3.89282334559211;66.097496992088;1519
441;3.90632031866908;66.084000019011;1517
442;3.92251645705967;66.0678038806204;1515
443;3.93743188649182;66.0528884511883;1515
444;3.95234687832691;66.0379734593532;1516
445;3.96456207375022;66.0257582639299;1517
446;3.97535945126851;66.0149608864116;1518
447;3.98892389792268;66.0013964397574;1517
448;4.00242049362107;65.987899844059;1515
449;4.01763436542235;65.9726859722578;1512
450;4.0324858215634;65.9578345161167;1510
451;4.04605303290627;65.9442673047738;1509
452;4.0569842147251;65.933336122955;1510
453;4.06656283287502;65.9237575048051;1511
454;4.07613901117351;65.9141813265066;1512
455;4.08712296252081;65.9031973751593;1512
456;4.09810110568054;65.8922192319996;1512
457;4.1090176049436;65.8813027327365;1511
458;4.11858125727122;65.8717390804089;1511
459;4.1294928190846;65.8608275185955;1511
460;4.13905144569813;65.851268891982;1510
461;4.15130847773446;65.8390118599456;1510
462;4.16356305615258;65.8267572815275;1508
463;4.17711722005457;65.8132031176255;1506
464;4.19071874243931;65.7996015952408;1505
465;4.20427128557923;65.7860490521009;1504
466;4.21782330657155;65.7724970311086;1504
467;4.23142010655222;65.7589002311279;1503
468;4.24505758607984;65.7452627516003;1502
469;4.25725555522161;65.7330647824585;1502
470;4.27084474747733;65.7194755902028;1501
471;4.28304094719166;65.7072793904885;1501
472;4.29658721069693;65.6937331269832;1500
473;4.31013289793521;65.6801874397449;1499
474;4.32367800824271;65.6666423294374;1498
475;4.33587187532897;65.6544484623511;1497
476;4.34941580808748;65.6409045295926;1496
477;4.36160847558934;65.6287118620908;1494
478;4.37515120546102;65.6151691322191;1493
479;4.38872795750778;65.6015923801723;1492
480;4.40226881790889;65.5880515197712;1491
481;4.41580905238172;65.5745112852984;1490
482;4.43069936464084;65.5596209730393;1489
483;4.44423834612523;65.5460819915549;1488
484;4.45642597890587;65.5338943587742;1488
485;4.46861295642974;65.5217073812504;1488
486;4.47947769086673;65.5108426468134;1487
487;4.49304103099546;65.4972793066846;1485
488;4.50525076360857;65.4850695740715;1484
489;4.51880837278374;65.4715119648964;1482
490;4.53101230045524;65.4593080372249;1480
491;4.54454246858898;65.4457778690911;1479
492;4.55672114468022;65.4335991929999;1478
493;4.56889910745625;65.4214212302239;1477
494;4.58242712800421;65.4078932096759;1476
495;4.594603640013;65.3957166976671;1475
496;4.60677941565822;65.3835409220219;1473
497;4.6203052308746;65.3700151068055;1472
498;4.63246221317331;65.3578581245068;1471
499;4.64598726489403;65.3443330727861;1470
500;4.65949490279672;65.3308254348834;1469
501;4.67165168494409;65.318668652736;1469
502;4.68382518325912;65.306495154421;1469
503;4.69463112751865;65.2956892101615;1468
504;4.70678772266932;65.2835326150108;1467
505;4.71894422185895;65.2713761158212;1465
506;4.73110062004153;65.2592197176386;1463
507;4.74460761074231;65.2457127269378;1461
508;4.75811447858572;65.2322058590944;1458
509;4.77295445635611;65.217365881324;1456
510;4.78644256101822;65.2038777766619;1454
511;4.8012800640645;65.1890402736156;1453
512;4.81478603712483;65.1755343005553;1452
513;4.82827141149822;65.1620489261819;1450
514;4.84175552699149;65.1485648106886;1448
515;4.85658886325743;65.1337314744227;1447
516;4.87007036783233;65.1202499698478;1446
517;4.88355054553061;65.1067697921495;1444
518;4.8970293734873;65.0932909641928;1443
519;4.91050683286476;65.0798135048153;1441
520;4.92395443312555;65.0663659045546;1440
521;4.93877830520326;65.0515420324768;1438
522;4.95360064285382;65.0367196948263;1437
523;4.9671029316668;65.0232174060133;1435
524;4.9805730893055;65.0097472483746;1434
525;4.99404172332807;64.996278614352;1432
526;5.00747377720413;64.982846560476;1429
527;5.02225106158725;64.9680692760929;1427
528;5.03571261297972;64.9546077247004;1425
529;5.04917248980925;64.9411478478709;1424
530;5.06258915692671;64.9277311807534;1422
531;5.07608710911509;64.914233228565;1421
532;5.08954177420607;64.900778563474;1419
533;5.10299463612415;64.887325701556;1416
534;5.11814926937288;64.8721710683072;1414
535;5.13300344570643;64.8573168919737;1412
536;5.14650704894065;64.8438132887395;1410
537;5.16136079133354;64.8289595463466;1408
538;5.17616939534406;64.8141509423361;1406
539;5.18962605545876;64.8006942822213;1404
540;5.2044312525689;64.7858890851112;1402
541;5.21793305917973;64.7723872785004;1400
542;5.23273596162187;64.7575843760582;1397
543;5.24623700867452;64.7440833290056;1395
544;5.26103752817205;64.7292828095081;1392
545;5.2758361344308;64.7144842032493;1389
546;5.29203567170465;64.6982846659755;1387
547;5.30683159426399;64.6834887434161;1385
548;5.32168009762537;64.6686402400547;1383
549;5.33652820841213;64.653792129268;1382
550;5.35132063470017;64.6389997029799;1380
551;5.36616756147345;64.6241527762067;1378
552;5.38095703545476;64.6093633022253;1376
553;5.39580268647378;64.5945176512063;1374
554;5.41064784488625;64.5796724927939;1373
555;5.42549248776291;64.5648278499172;1371
556;5.44027704771532;64.5500432899648;1369
557;5.45512020536351;64.5352001323166;1367
558;5.46996277571651;64.5203575619636;1365
559;5.48480473658716;64.505515601093;1363
